Data from Relative_13-03-51-324.txt Node
Date: Tue Mar 10 13:03:51 CET 2020
User: bmjesus
Spectrometer: FLMS04340
Trigger mode: 0
Integration Time (sec): 1,500000E-3
Scans to average: 16
Electric dark correction enabled: true
Nonlinearity correction enabled: false
Boxcar width: 0
XAxis mode: Wavelengths
Number of Pixels in Spectrum: 2048
>>>>>Begin Spectral Data<<<<<
339,736	63,13
340,118	63,13
340,5	63,13
340,882	32,73
341,264	89,25
341,645	21,84
342,027	-26,7
342,409	244,64
342,791	70,67
343,173	-24,13
343,554	-355,1
343,936	121,59
344,318	246,31
344,699	142,39
345,081	85,47
345,462	58,42
345,843	208,53
346,225	-49,4
346,606	-414,12
346,987	57,76
347,369	42,34
347,75	-134,34
348,131	97,58
348,512	63,28
348,893	53,91
349,274	58,69
349,655	52,93
350,036	59,51
350,417	57,45
350,798	63,1
351,179	46,3
351,56	69,44
351,94	63,62
352,321	50,81
352,702	49,95
353,082	47,42
353,463	50,81
353,843	49,39
354,224	59,45
354,604	54,81
354,985	50,8
355,365	66,95
355,745	58,01
356,126	45,71
356,506	48,83
356,886	48,25
357,266	51
357,646	55,11
358,026	51,76
358,406	51,49
358,786	60,28
359,166	43,5
359,546	59,1
359,926	41,9
360,306	52,33
360,685	56,56
361,065	55,7
361,445	62,53
361,824	53,72
362,204	54,3
362,583	54,51
362,963	47,14
363,342	62,51
363,722	45,52
364,101	52,12
364,48	48,04
364,86	52,89
365,239	53,39
365,618	56,08
365,997	64,01
366,376	54,91
366,755	52,77
367,134	55,72
367,513	48,45
367,892	54,87
368,271	52,27
368,65	52,04
369,029	53,34
369,407	58,21
369,786	53,84
370,165	46,75
370,543	53,82
370,922	48,84
371,3	51,3
371,679	37,17
372,057	54,29
372,436	42,15
372,814	47,71
373,192	45,31
373,571	42,44
373,949	42,09
374,327	53,54
374,705	49,56
375,083	44,07
375,461	53,18
375,839	55,42
376,217	38,02
376,595	54,44
376,973	33,89
377,351	43
377,729	43,09
378,106	44,67
378,484	49,34
378,862	48,99
379,239	43,99
379,617	36,4
379,994	40,4
380,372	44,42
380,749	37,38
381,127	39,5
381,504	35,43
381,881	42,63
382,259	39,84
382,636	36,5
383,013	32,69
383,39	37,08
383,767	47,06
384,144	40,52
384,521	37,01
384,898	41,91
385,275	39,67
385,652	35,74
386,029	34,6
386,406	33,51
386,782	34,67
387,159	28,01
387,536	30,86
387,912	36,76
388,289	34,45
388,665	31,63
389,042	33,52
389,418	29,91
389,795	33,73
390,171	37,03
390,547	31,69
390,924	32,19
391,3	25,83
391,676	29,26
392,052	28,9
392,428	28,71
392,804	32,46
393,18	30,58
393,556	30,51
393,932	29,39
394,308	28,54
394,684	24,08
395,059	25,2
395,435	23,97
395,811	23,36
396,186	24,13
396,562	25,53
396,938	22,55
397,313	22,59
397,689	21,2
398,064	23,06
398,439	21,05
398,815	19,68
399,19	20,56
399,565	18,75
399,94	21,34
400,316	16,9
400,691	17,74
401,066	20,87
401,441	19,1
401,816	17,21
402,191	18,17
402,566	19,43
402,94	16,27
403,315	17,8
403,69	20,74
404,065	14,79
404,439	18,37
404,814	16,82
405,189	15,15
405,563	15,31
405,938	15,3
406,312	16,56
406,686	16,07
407,061	16,48
407,435	17,44
407,809	17,63
408,184	17,02
408,558	16,02
408,932	16,45
409,306	16,61
409,68	17,01
410,054	16,47
410,428	16,61
410,802	14,74
411,176	16,98
411,55	14,66
411,923	15,4
412,297	16,3
412,671	16,21
413,044	16,93
413,418	15,75
413,792	14,7
414,165	15,51
414,539	14,55
414,912	17,87
415,285	16,45
415,659	16,82
416,032	16,52
416,405	16,35
416,778	17,08
417,152	17,61
417,525	16,69
417,898	16,06
418,271	17,84
418,644	15,18
419,017	16,75
419,39	16,68
419,763	16,75
420,135	16,24
420,508	17,88
420,881	17,13
421,253	18,71
421,626	17,96
421,999	17,88
422,371	17,27
422,744	16,95
423,116	18,45
423,489	18,48
423,861	19,14
424,233	18,4
424,606	18,71
424,978	18,2
425,35	18,66
425,722	18,42
426,094	19,27
426,466	19,33
426,838	19,45
427,21	19,96
427,582	20,01
427,954	20,25
428,326	21,39
428,698	20,62
429,069	21,22
429,441	19,76
429,813	20,84
430,184	21,68
430,556	20,89
430,927	20,57
431,299	20,95
431,67	20,59
432,042	21,16
432,413	22,38
432,784	22,43
433,155	21,79
433,527	23,12
433,898	23,65
434,269	23,02
434,64	22,69
435,011	22,89
435,382	24,01
435,753	23,88
436,124	24,02
436,495	24,54
436,866	22,93
437,236	25,01
437,607	24,19
437,978	24,34
438,348	25,16
438,719	25,1
439,089	25,18
439,46	24,83
439,83	25,78
440,201	24,73
440,571	25,53
440,941	25,19
441,312	26,15
441,682	25,19
442,052	26,13
442,422	25,84
442,792	26,03
443,162	26,07
443,532	25,67
443,902	25,8
444,272	26,17
444,642	26,09
445,012	26
445,382	25,91
445,751	26,23
446,121	26,41
446,491	26,05
446,86	25,93
447,23	24,52
447,599	25,67
447,969	26,16
448,338	25,55
448,707	25,77
449,077	25,25
449,446	25,37
449,815	25,69
450,184	25,15
450,554	24,79
450,923	24,9
451,292	24,87
451,661	24,79
452,03	24,5
452,399	24,24
452,767	24,05
453,136	24,26
453,505	23,95
453,874	23,81
454,242	23,5
454,611	23,4
454,98	23,2
455,348	22,83
455,717	22,56
456,085	21,29
456,454	22,22
456,822	21,89
457,19	21,34
457,559	21,47
457,927	21,28
458,295	21,05
458,663	20,36
459,031	20,19
459,399	19,94
459,767	20,06
460,135	20,08
460,503	19,96
460,871	19,03
461,239	19,07
461,607	19,01
461,974	18,65
462,342	17,98
462,71	17,88
463,077	17,59
463,445	17,69
463,813	17,47
464,18	17,4
464,547	16,78
464,915	16,72
465,282	16,69
465,649	16,29
466,017	16,42
466,384	15,93
466,751	15,75
467,118	14,73
467,485	15,12
467,852	15,09
468,219	14,55
468,586	13,81
468,953	13,91
469,32	13,54
469,687	13,71
470,053	13,41
470,42	13
470,787	12,46
471,153	12,72
471,52	12,13
471,886	11,99
472,253	11,85
472,619	11,86
472,986	11,48
473,352	11,06
473,718	10,69
474,085	11,01
474,451	10,61
474,817	10,19
475,183	10,09
475,549	9,51
475,915	9,29
476,281	9,43
476,647	9,32
477,013	8,83
477,379	8,88
477,744	8,44
478,11	8,19
478,476	8,18
478,842	8
479,207	7,63
479,573	7,49
479,938	7,52
480,304	7,2
480,669	7,11
481,034	6,83
481,4	6,6
481,765	6,43
482,13	6,47
482,496	6,05
482,861	5,63
483,226	5,93
483,591	5,51
483,956	5,55
484,321	5,51
484,686	4,95
485,051	5,09
485,415	4,72
485,78	4,85
486,145	4,53
486,51	4,5
486,874	4,49
487,239	4,07
487,604	3,97
487,968	4,07
488,332	3,65
488,697	3,65
489,061	3,64
489,426	3,5
489,79	3,43
490,154	3,16
490,518	2,96
490,882	3,01
491,247	2,9
491,611	2,8
491,975	2,74
492,339	2,62
492,703	2,43
493,066	2,56
493,43	2,45
493,794	2,45
494,158	2,29
494,521	2,32
494,885	2,19
495,249	2,12
495,612	2,07
495,976	1,86
496,339	1,86
496,703	1,72
497,066	1,65
497,429	1,66
497,793	1,53
498,156	1,63
498,519	1,46
498,882	1,42
499,245	1,49
499,608	1,27
499,971	1,3
500,334	1,26
500,697	1,25
501,06	1,08
501,423	1,07
501,786	0,98
502,148	0,91
502,511	0,84
502,874	0,93
503,236	0,94
503,599	0,84
503,961	0,86
504,324	0,74
504,686	0,83
505,048	0,79
505,411	0,57
505,773	0,66
506,135	0,6
506,497	0,65
506,859	0,62
507,222	0,59
507,584	0,41
507,946	0,59
508,308	0,56
508,669	0,42
509,031	0,5
509,393	0,52
509,755	0,47
510,117	0,37
510,478	0,34
510,84	0,33
511,201	0,43
511,563	0,4
511,924	0,38
512,286	0,41
512,647	0,43
513,009	0,35
513,37	0,41
513,731	0,49
514,092	0,29
514,453	0,42
514,815	0,4
515,176	0,28
515,537	0,28
515,898	0,22
516,259	0,27
516,619	0,26
516,98	0,3
517,341	0,35
517,702	0,26
518,062	0,33
518,423	0,3
518,784	0,21
519,144	0,29
519,505	0,26
519,865	0,2
520,226	0,28
520,586	0,24
520,946	0,3
521,307	0,26
521,667	0,25
522,027	0,16
522,387	0,24
522,747	0,28
523,107	0,29
523,467	0,36
523,827	0,28
524,187	0,21
524,547	0,18
524,907	0,29
525,267	0,28
525,626	0,14
525,986	0,23
526,346	0,23
526,705	0,23
527,065	0,22
527,424	0,22
527,784	0,23
528,143	0,19
528,502	0,18
528,862	0,13
529,221	0,21
529,58	0,23
529,939	0,19
530,298	0,24
530,657	0,29
531,017	0,18
531,375	0,2
531,734	0,25
532,093	0,22
532,452	0,16
532,811	0,17
533,17	0,16
533,528	0,24
533,887	0,23
534,246	0,17
534,604	0,19
534,963	0,16
535,321	0,21
535,68	0,17
536,038	0,21
536,396	0,17
536,755	0,19
537,113	0,14
537,471	0,11
537,829	0,23
538,187	0,2
538,545	0,2
538,903	0,12
539,261	0,18
539,619	0,21
539,977	0,18
540,335	0,16
540,692	0,16
541,05	0,17
541,408	0,21
541,765	0,25
542,123	0,16
542,481	0,17
542,838	0,23
543,196	0,13
543,553	0,13
543,91	0,13
544,268	0,17
544,625	0,19
544,982	0,14
545,339	0,17
545,696	0,24
546,053	0,1
546,41	0,13
546,767	0,19
547,124	0,14
547,481	0,14
547,838	0,15
548,195	0,14
548,551	0,14
548,908	0,07
549,265	0,13
549,621	0,14
549,978	0,13
550,334	0,12
550,691	0,12
551,047	0,12
551,404	0,18
551,76	0,09
552,116	0,2
552,472	0,11
552,829	0,1
553,185	0,14
553,541	0,13
553,897	0,11
554,253	0,21
554,609	0,19
554,965	0,11
555,32	0,11
555,676	0,13
556,032	0,14
556,388	0,14
556,743	0,18
557,099	0,08
557,454	0,13
557,81	0,11
558,165	0,15
558,521	0,16
558,876	0,18
559,232	0,18
559,587	0,17
559,942	0,11
560,297	0,1
560,652	0,14
561,007	0,21
561,363	0,17
561,717	0,1
562,072	0,19
562,427	0,19
562,782	0,14
563,137	0,17
563,492	0,14
563,846	0,13
564,201	0,14
564,556	0,15
564,91	0,14
565,265	0,15
565,619	0,06
565,974	0,06
566,328	0,12
566,682	0,14
567,037	0,15
567,391	0,12
567,745	0,16
568,099	0,1
568,453	0,14
568,807	0,15
569,161	0,17
569,515	0,12
569,869	0,16
570,223	0,1
570,577	0,13
570,931	0,2
571,284	0,15
571,638	0,14
571,992	0,1
572,345	0,18
572,699	0,13
573,052	0,1
573,406	0,09
573,759	0,05
574,112	0,08
574,466	0,13
574,819	0,13
575,172	0,11
575,525	0,13
575,878	0,11
576,232	0,14
576,585	0,18
576,937	0,13
577,29	0,08
577,643	0,17
577,996	0,13
578,349	0,14
578,702	0,16
579,054	0,16
579,407	0,09
579,759	0,11
580,112	0,1
580,464	0,05
580,817	0,16
581,169	0,1
581,522	0,15
581,874	0,12
582,226	0,02
582,578	0,16
582,931	0,1
583,283	0,15
583,635	0,12
583,987	0,16
584,339	0,09
584,691	0,07
585,042	0,19
585,394	0,13
585,746	0,17
586,098	0,14
586,449	0,12
586,801	0,14
587,153	0,06
587,504	0,04
587,856	0,09
588,207	0,11
588,558	0,19
588,91	0,08
589,261	0,11
589,612	0,12
589,964	0,13
590,315	0,14
590,666	0,15
591,017	0,13
591,368	0,04
591,719	0,12
592,07	0,09
592,421	0,07
592,771	0,11
593,122	0,1
593,473	0,1
593,824	0,1
594,174	0,14
594,525	0,07
594,875	0,09
595,226	0,14
595,576	0,11
595,927	0,14
596,277	0,12
596,627	0,09
596,978	0,15
597,328	0,08
597,678	0,11
598,028	0,1
598,378	0,08
598,728	0,11
599,078	0,12
599,428	0,08
599,778	0,13
600,128	0,08
600,477	0,16
600,827	0,16
601,177	0,12
601,526	0,1
601,876	0,1
602,225	0,13
602,575	0,16
602,924	0,16
603,274	0,09
603,623	0,07
603,972	0,14
604,322	0,15
604,671	0,15
605,02	0,08
605,369	0,11
605,718	0,12
606,067	0,12
606,416	0,14
606,765	0,1
607,114	0,14
607,463	0,1
607,811	0,08
608,16	0,13
608,509	0,11
608,857	0,13
609,206	0,09
609,554	0,08
609,903	0,1
610,251	0,15
610,6	0,14
610,948	0,1
611,296	0,07
611,644	0,14
611,993	0,12
612,341	0,15
612,689	0,07
613,037	0,06
613,385	0,1
613,733	0,1
614,081	0,09
614,429	0,05
614,776	0,07
615,124	0,07
615,472	0,08
615,819	0,07
616,167	0,1
616,515	0,09
616,862	0,06
617,21	0,09
617,557	0,1
617,904	0,1
618,252	0,14
618,599	0,06
618,946	0,14
619,293	0,05
619,64	0,1
619,987	0,06
620,334	0,11
620,681	0,05
621,028	0,04
621,375	0,1
621,722	0,06
622,069	0,09
622,416	0,05
622,762	0,14
623,109	0,14
623,455	0,08
623,802	0,11
624,149	0,12
624,495	0,08
624,841	0,08
625,188	0,15
625,534	0,12
625,88	0,08
626,226	0,13
626,573	0,08
626,919	0,16
627,265	0,04
627,611	0,14
627,957	0,07
628,303	0,1
628,648	0,11
628,994	0,15
629,34	0,09
629,686	0,08
630,031	0,05
630,377	0,12
630,723	0,08
631,068	0,09
631,414	0,11
631,759	0,07
632,104	0,07
632,45	0,08
632,795	0,05
633,14	0,09
633,485	0,12
633,831	0,16
634,176	0,12
634,521	0,12
634,866	0,13
635,211	0,08
635,556	0,15
635,9	0,09
636,245	0,06
636,59	0,05
636,935	0,1
637,279	0,09
637,624	0,1
637,968	0,12
638,313	0,14
638,657	0,11
639,002	0,07
639,346	0,1
639,69	0,09
640,035	0,08
640,379	0,07
640,723	0,07
641,067	0,08
641,411	0,13
641,755	0,11
642,099	0,07
642,443	0,16
642,787	0,09
643,131	0,13
643,475	0,07
643,818	0,12
644,162	0,08
644,506	0,12
644,849	0,09
645,193	0,12
645,536	0,12
645,88	0,1
646,223	0,12
646,566	0,11
646,91	0,16
647,253	0,18
647,596	0,2
647,939	0,14
648,282	0,13
648,625	0,12
648,968	0,18
649,311	0,1
649,654	0,13
649,997	0,08
650,34	0,16
650,682	0,14
651,025	0,07
651,368	0,13
651,71	0,16
652,053	0,18
652,395	0,11
652,738	0,18
653,08	0,12
653,423	0,21
653,765	0,11
654,107	0,16
654,449	0,19
654,792	0,16
655,134	0,19
655,476	0,2
655,818	0,12
656,16	0,21
656,502	0,2
656,843	0,16
657,185	0,14
657,527	0,15
657,869	0,12
658,21	0,16
658,552	0,2
658,894	0,19
659,235	0,2
659,577	0,16
659,918	0,18
660,259	0,14
660,601	0,15
660,942	0,2
661,283	0,18
661,624	0,18
661,965	0,19
662,307	0,18
662,648	0,17
662,989	0,22
663,329	0,15
663,67	0,18
664,011	0,19
664,352	0,21
664,693	0,24
665,033	0,21
665,374	0,23
665,715	0,18
666,055	0,16
666,396	0,19
666,736	0,15
667,076	0,18
667,417	0,12
667,757	0,17
668,097	0,16
668,438	0,21
668,778	0,09
669,118	0,16
669,458	0,18
669,798	0,19
670,138	0,14
670,478	0,21
670,817	0,13
671,157	0,19
671,497	0,16
671,837	0,21
672,176	0,18
672,516	0,12
672,856	0,13
673,195	0,22
673,534	0,15
673,874	0,14
674,213	0,15
674,553	0,2
674,892	0,18
675,231	0,23
675,57	0,13
675,909	0,13
676,248	0,19
676,587	0,13
676,926	0,19
677,265	0,13
677,604	0,19
677,943	0,21
678,282	0,19
678,62	0,19
678,959	0,27
679,298	0,23
679,636	0,2
679,975	0,19
680,313	0,11
680,651	0,25
680,99	0,21
681,328	0,17
681,666	0,19
682,005	0,18
682,343	0,23
682,681	0,18
683,019	0,23
683,357	0,28
683,695	0,22
684,033	0,2
684,371	0,26
684,709	0,21
685,046	0,26
685,384	0,27
685,722	0,31
686,059	0,24
686,397	0,28
686,734	0,3
687,072	0,31
687,409	0,27
687,747	0,32
688,084	0,35
688,421	0,36
688,758	0,37
689,096	0,36
689,433	0,44
689,77	0,44
690,107	0,47
690,444	0,47
690,781	0,51
691,118	0,48
691,454	0,58
691,791	0,65
692,128	0,64
692,465	0,61
692,801	0,69
693,138	0,74
693,474	0,73
693,811	0,71
694,147	0,73
694,484	0,83
694,82	0,84
695,156	0,9
695,492	0,98
695,829	1,08
696,165	1,14
696,501	1,21
696,837	1,27
697,173	1,24
697,509	1,36
697,845	1,42
698,18	1,48
698,516	1,59
698,852	1,7
699,188	1,68
699,523	1,83
699,859	1,96
700,194	2,04
700,53	2,17
700,865	2,18
701,201	2,22
701,536	2,44
701,871	2,4
702,206	2,54
702,542	2,62
702,877	2,84
703,212	2,92
703,547	3,03
703,882	3,14
704,217	3,33
704,552	3,39
704,886	3,5
705,221	3,73
705,556	3,86
705,891	3,97
706,225	4,08
706,56	4,32
706,894	4,45
707,229	4,71
707,563	4,76
707,898	4,88
708,232	5,02
708,566	5,25
708,901	5,42
709,235	5,65
709,569	5,78
709,903	6,02
710,237	6,17
710,571	6,44
710,905	6,46
711,239	6,66
711,573	6,92
711,906	7,18
712,24	7,41
712,574	7,45
712,907	7,76
713,241	8,05
713,574	8,13
713,908	8,41
714,241	8,59
714,575	8,74
714,908	9,07
715,241	9,32
715,574	9,45
715,908	9,79
716,241	9,9
716,574	10,2
716,907	10,41
717,24	10,67
717,573	11,06
717,906	11,19
718,238	11,5
718,571	11,88
718,904	12,06
719,237	12,32
719,569	12,52
719,902	12,7
720,234	13,02
720,567	13,15
720,899	13,67
721,232	13,87
721,564	13,98
721,896	14,36
722,228	14,69
722,561	14,84
722,893	15,23
723,225	15,64
723,557	15,75
723,889	16,14
724,221	16,25
724,552	16,56
724,884	16,91
725,216	17,15
725,548	17,4
725,879	17,68
726,211	18,22
726,543	18,23
726,874	18,6
727,206	18,9
727,537	19,13
727,868	19,64
728,2	19,87
728,531	20,24
728,862	20,43
729,193	20,82
729,524	21,04
729,855	21,34
730,186	21,71
730,517	21,95
730,848	22,46
731,179	22,69
731,51	23,05
731,841	23,28
732,171	23,53
732,502	23,99
732,833	24,14
733,163	24,44
733,494	24,92
733,824	25,04
734,154	25,46
734,485	25,95
734,815	26,28
735,145	26,42
735,476	26,78
735,806	27,04
736,136	27,52
736,466	27,61
736,796	28,41
737,126	28,38
737,456	28,83
737,786	28,9
738,115	29,42
738,445	29,58
738,775	30,14
739,104	30,28
739,434	30,62
739,763	31,02
740,093	31,07
740,422	31,68
740,752	31,95
741,081	32,4
741,41	32,68
741,74	32,75
742,069	32,84
742,398	33,38
742,727	34
743,056	34,22
743,385	34,37
743,714	34,74
744,043	35,12
744,372	35,16
744,7	35,64
745,029	35,75
745,358	36,36
745,686	36,51
746,015	36,96
746,343	37,14
746,672	37,51
747	37,76
747,329	38,36
747,657	38,12
747,985	38,83
748,314	38,95
748,642	39,23
748,97	39,77
749,298	39,67
749,626	40,12
749,954	40,48
750,282	40,88
750,61	40,74
750,937	41,25
751,265	41,37
751,593	41,97
751,92	42,1
752,248	42,24
752,576	42,53
752,903	42,92
753,231	43,41
753,558	43,29
753,885	43,94
754,213	44,07
754,54	44,42
754,867	44,53
755,194	44,99
755,521	45,01
755,848	45,84
756,175	45,56
756,502	46,03
756,829	46,3
757,156	46,51
757,483	46,8
757,809	47,04
758,136	47,59
758,463	47,64
758,789	47,88
759,116	48,25
759,442	48,47
759,769	48,57
760,095	48,94
760,421	49,42
760,748	49,64
761,074	49,93
761,4	50,08
761,726	50,31
762,052	50,42
762,378	50,85
762,704	51,27
763,03	51,43
763,356	51,86
763,682	52,18
764,008	52,21
764,333	52,6
764,659	52,86
764,985	53,45
765,31	53,1
765,636	53,55
765,961	53,86
766,287	54,65
766,612	54,42
766,937	54,82
767,262	54,89
767,588	55,22
767,913	55,46
768,238	55,86
768,563	56,2
768,888	56,55
769,213	56,4
769,538	56,55
769,863	56,86
770,187	57,37
770,512	57,7
770,837	58,11
771,161	57,67
771,486	58,05
771,81	58,25
772,135	58,52
772,459	58,87
772,784	59,27
773,108	59,3
773,432	59,65
773,757	60,1
774,081	59,73
774,405	60,63
774,729	60,57
775,053	60,65
775,377	60,88
775,701	61,06
776,025	61,28
776,348	61,8
776,672	61,79
776,996	61,71
777,319	62,38
777,643	62,22
777,967	62,69
778,29	62,86
778,614	62,93
778,937	63,16
779,26	63,25
779,584	63,52
779,907	63,86
780,23	63,76
780,553	64,29
780,876	64,26
781,199	64,56
781,522	64,46
781,845	64,43
782,168	64,98
782,491	65,23
782,814	65,17
783,136	65,48
783,459	64,99
783,782	65,44
784,104	65,48
784,427	65,51
784,749	65,84
785,072	65,85
785,394	66,51
785,716	66,27
786,039	66,47
786,361	66,7
786,683	66,67
787,005	67,1
787,327	67,11
787,649	67,37
787,971	66,91
788,293	67,07
788,615	67,71
788,936	67,54
789,258	67,73
789,58	68,07
789,902	68,04
790,223	68,05
790,545	68,17
790,866	68,44
791,188	68,29
791,509	68,05
791,83	68,2
792,152	68,12
792,473	68,94
792,794	69,04
793,115	68,54
793,436	68,63
793,757	68,89
794,078	69,25
794,399	69,29
794,72	69,21
795,041	69,04
795,361	69,46
795,682	69,04
796,003	69,6
796,323	69,63
796,644	69,68
796,964	69,68
797,285	69,93
797,605	69,56
797,925	69,97
798,246	70,29
798,566	69,89
798,886	70,43
799,206	69,91
799,526	70,26
799,846	70,28
800,166	70,4
800,486	70,33
800,806	69,99
801,126	70,65
801,446	70,7
801,765	70,76
802,085	70,92
802,405	71,05
802,724	70,92
803,044	71,06
803,363	70,98
803,683	71,29
804,002	71,36
804,321	71,29
804,64	71,65
804,96	72,17
805,279	71,98
805,598	71,9
805,917	71,89
806,236	71,97
806,555	71,78
806,874	71,96
807,193	72,28
807,511	72,23
807,83	72,69
808,149	72,47
808,467	71,73
808,786	72,84
809,104	72,84
809,423	72,7
809,741	72,68
810,06	72,55
810,378	73,35
810,696	73,04
811,014	73,04
811,332	73,43
811,651	73,31
811,969	74,02
812,287	73,38
812,605	73,61
812,922	73,77
813,24	73,39
813,558	74,4
813,876	73,86
814,193	74,42
814,511	74,2
814,829	74,54
815,146	74,35
815,464	74,59
815,781	74,73
816,098	74,69
816,416	74,31
816,733	75,54
817,05	75,39
817,367	75,31
817,684	75,56
818,001	75,48
818,318	75,24
818,635	75,02
818,952	76,07
819,269	76,14
819,586	75,89
819,903	76,17
820,219	75,72
820,536	76,46
820,852	76,27
821,169	76,37
821,485	76,67
821,802	76,38
822,118	76,82
822,435	76,75
822,751	76,83
823,067	76,87
823,383	77,64
823,699	77,01
824,015	77,34
824,331	77,42
824,647	77,56
824,963	77,62
825,279	77,71
825,595	77,4
825,91	77,88
826,226	77,83
826,542	77,73
826,857	77,9
827,173	77,88
827,488	78,51
827,804	78,02
828,119	77,99
828,434	78,44
828,75	78,36
829,065	78,62
829,38	78,42
829,695	78,7
830,01	78,85
830,325	79,28
830,64	79,03
830,955	78,84
831,27	78,8
831,585	79,06
831,899	78,73
832,214	78,92
832,529	79,56
832,843	79,69
833,158	79,67
833,472	79,34
833,787	79,37
834,101	79,17
834,415	79,1
834,729	79,05
835,044	79,52
835,358	80,31
835,672	79,7
835,986	79,42
836,3	79,74
836,614	79,92
836,928	79,61
837,242	79,61
837,555	79,94
837,869	80,03
838,183	80,2
838,496	79,41
838,81	80,2
839,123	80,16
839,437	79,78
839,75	80,22
840,064	79,75
840,377	80,15
840,69	80,06
841,003	79,77
841,317	80,12
841,63	80,09
841,943	79,91
842,256	79,65
842,569	80,11
842,882	80,2
843,194	80,11
843,507	79,63
843,82	80,21
844,133	79,71
844,445	80,49
844,758	79,76
845,07	80,11
845,383	79,41
845,695	80,3
846,007	80,2
846,32	80,4
846,632	80,07
846,944	80,07
847,256	80,07
847,568	80,24
847,88	79,5
848,192	80,02
848,504	80,4
848,816	80,08
849,128	79,63
849,44	80,69
849,751	80,28
850,063	79,85
850,375	79,89
850,686	80,09
850,998	80,32
851,309	80,33
851,621	80,32
851,932	79,93
852,243	80,23
852,554	79,99
852,866	80,03
853,177	79,86
853,488	80,53
853,799	79,77
854,11	79,85
854,421	80,15
854,732	80,35
855,042	80,17
855,353	80,22
855,664	80,17
855,974	80,28
856,285	79,64
856,596	80,09
856,906	79,88
857,216	79,44
857,527	80,28
857,837	79,71
858,147	80,3
858,458	80,34
858,768	80,23
859,078	80,15
859,388	80,63
859,698	80,85
860,008	80,84
860,318	80
860,628	80,24
860,938	80,58
861,247	80,33
861,557	80,45
861,867	79,78
862,176	80,32
862,486	80,44
862,795	81,01
863,105	79,11
863,414	80,47
863,723	80,91
864,032	80,83
864,342	80,25
864,651	80,62
864,96	80,77
865,269	80,7
865,578	81,31
865,887	81,03
866,196	81,73
866,505	80,98
866,813	80,79
867,122	81,18
867,431	80,65
867,739	80,8
868,048	80,8
868,356	81,08
868,665	81,26
868,973	80,53
869,282	81,64
869,59	81,29
869,898	81,66
870,206	81,91
870,515	81,02
870,823	81,31
871,131	81,74
871,439	82,09
871,747	81,66
872,054	81,35
872,362	82,24
872,67	81,74
872,978	81,71
873,285	82,43
873,593	82,26
873,9	82,56
874,208	82,52
874,515	82,83
874,823	82,65
875,13	83,25
875,437	82,47
875,745	81,71
876,052	82,78
876,359	82,49
876,666	82,65
876,973	82,65
877,28	82,19
877,587	82,69
877,894	83,17
878,2	81,82
878,507	82,66
878,814	82,66
879,12	83,08
879,427	83,49
879,734	82,87
880,04	83,19
880,346	83,53
880,653	82,88
880,959	83,31
881,265	82,97
881,572	84,15
881,878	83,07
882,184	83,69
882,49	83,15
882,796	82,62
883,102	83,98
883,408	83,77
883,713	84,88
884,019	84,29
884,325	84,82
884,631	84,94
884,936	84,05
885,242	84,24
885,547	83,43
885,853	84,38
886,158	84,17
886,463	84,93
886,769	84,26
887,074	84,54
887,379	84,33
887,684	84,79
887,989	84,03
888,294	84,9
888,599	84,65
888,904	84,28
889,209	84,82
889,514	85,81
889,818	84,64
890,123	84,32
890,428	85,16
890,732	85,59
891,037	85,33
891,341	84,02
891,646	84,94
891,95	84,53
892,254	84,03
892,559	85,99
892,863	84,67
893,167	84,6
893,471	83,89
893,775	84,38
894,079	84,3
894,383	84,46
894,687	86,29
894,991	84,61
895,295	85,56
895,598	85,13
895,902	85,35
896,206	85,44
896,509	85,38
896,813	85,82
897,116	84,97
897,419	84,98
897,723	85,22
898,026	84,95
898,329	84,81
898,632	85,08
898,936	85
899,239	85,1
899,542	85,69
899,845	84,93
900,147	85,45
900,45	84,55
900,753	85,55
901,056	84,03
901,358	84,96
901,661	85,85
901,964	84,87
902,266	85,89
902,569	85,22
902,871	85,92
903,173	84,16
903,476	85,54
903,778	84,49
904,08	83,74
904,382	84,78
904,684	84,93
904,986	85,4
905,288	86,36
905,59	83,67
905,892	85,24
906,194	84,14
906,496	84,17
906,797	83,76
907,099	84,3
907,401	84,52
907,702	85,19
908,004	84,49
908,305	84,66
908,607	84,04
908,908	84,74
909,209	83,76
909,51	85,26
909,811	83,51
910,113	83,94
910,414	84,47
910,715	84,99
911,016	84,59
911,316	83,58
911,617	84,71
911,918	84,73
912,219	83,98
912,519	83,65
912,82	84,71
913,121	83,93
913,421	84,53
913,722	84,08
914,022	84,23
914,322	84,04
914,623	84,13
914,923	83,51
915,223	83,39
915,523	82,43
915,823	84,03
916,123	83,9
916,423	83,94
916,723	84,05
917,023	84,57
917,323	84,41
917,622	84,42
917,922	83,69
918,222	83,7
918,521	83,78
918,821	83,3
919,12	83,92
919,42	83,18
919,719	84,77
920,018	83,01
920,318	83,46
920,617	81,69
920,916	82,96
921,215	83,35
921,514	83,55
921,813	83,24
922,112	83,5
922,411	82,81
922,71	82,57
923,008	82,98
923,307	83,8
923,606	83,2
923,904	83,38
924,203	82,78
924,501	82,65
924,8	83
925,098	83,61
925,396	82,77
925,695	83,69
925,993	83,6
926,291	82,94
926,589	82,77
926,887	83,47
927,185	84,45
927,483	83,1
927,781	82,18
928,079	83,79
928,376	82,7
928,674	83,7
928,972	82,77
929,269	83,91
929,567	82,23
929,864	82,89
930,162	83,17
930,459	83,02
930,757	82,23
931,054	84,05
931,351	83,18
931,648	81,69
931,945	82,91
932,242	83,33
932,539	83,3
932,836	83,3
933,133	82,71
933,43	84,06
933,727	84,22
934,023	83,03
934,32	84,97
934,617	82,23
934,913	82,59
935,21	83,06
935,506	83,86
935,803	84,69
936,099	82,03
936,395	82,97
936,691	82,16
936,988	83,44
937,284	83,72
937,58	82,54
937,876	83,24
938,172	83,46
938,468	83,25
938,763	81,96
939,059	81,51
939,355	83,39
939,651	85,8
939,946	81,43
940,242	82,92
940,537	83,89
940,833	83,1
941,128	82,25
941,423	82,61
941,719	82,25
942,014	84,27
942,309	83,56
942,604	83,49
942,899	84,53
943,194	80,9
943,489	82,95
943,784	85,88
944,079	84,02
944,374	86,64
944,669	85,52
944,963	85,31
945,258	81,49
945,552	84,2
945,847	83,88
946,141	82,44
946,436	84,5
946,73	84,17
947,024	82,78
947,319	84,36
947,613	80,57
947,907	84,21
948,201	83,6
948,495	81,67
948,789	84,5
949,083	85,81
949,377	83,8
949,67	84,14
949,964	84,01
950,258	81,88
950,552	82,83
950,845	85,21
951,139	84,75
951,432	84,12
951,725	83,53
952,019	86,92
952,312	85,53
952,605	85,81
952,898	86,33
953,192	84,22
953,485	88,82
953,778	85,78
954,071	82,61
954,364	82,34
954,656	83,29
954,949	83,03
955,242	86,28
955,535	83,82
955,827	84,46
956,12	85,88
956,412	83,9
956,705	81,42
956,997	84,19
957,289	86,26
957,582	88,17
957,874	85,35
958,166	85,76
958,458	86,39
958,75	85,87
959,042	85,61
959,334	85,83
959,626	86,51
959,918	82,66
960,21	84,21
960,502	85,66
960,793	89,38
961,085	88,63
961,376	83,94
961,668	85,89
961,959	85,65
962,251	88,68
962,542	86,67
962,833	82,63
963,125	84,47
963,416	86,71
963,707	85,02
963,998	88,2
964,289	88,21
964,58	87,87
964,871	86,5
965,162	84,97
965,452	83,35
965,743	84,87
966,034	84,39
966,324	86,29
966,615	87,12
966,906	85,74
967,196	87,27
967,486	84,11
967,777	88,96
968,067	85,62
968,357	88,13
968,647	85,09
968,938	84,34
969,228	86,21
969,518	85,49
969,808	86,48
970,097	86,02
970,387	84,49
970,677	89,12
970,967	87,46
971,256	83,95
971,546	85,95
971,836	86,73
972,125	85,51
972,414	84,82
972,704	84,48
972,993	87,62
973,282	85,18
973,572	84,5
973,861	83,72
974,15	82,98
974,439	86,5
974,728	86,76
975,017	87,43
975,306	88
975,595	80,95
975,883	86,16
976,172	91,21
976,461	87,93
976,749	85,33
977,038	85,96
977,326	89,81
977,615	84,89
977,903	83,54
978,192	88,23
978,48	83,85
978,768	93,28
979,056	89,98
979,344	84
979,632	83,91
979,92	89,35
980,208	88,38
980,496	88,63
980,784	91,84
981,072	85,04
981,359	85,49
981,647	83,06
981,935	86,71
982,222	84,96
982,51	90,44
982,797	86,54
983,084	85,07
983,372	82,4
983,659	87,08
983,946	88,21
984,233	84,05
984,52	87,2
984,807	82,25
985,094	79,2
985,381	82,05
985,668	84,45
985,955	82,03
986,242	86,05
986,528	80,65
986,815	87,31
987,102	77,12
987,388	84,34
987,675	82,52
987,961	87,31
988,247	86,31
988,534	90
988,82	82,42
989,106	81,08
989,392	83,49
989,678	82,32
989,964	89,25
990,25	91,32
990,536	81,52
990,822	82,5
991,108	74,07
991,393	79,53
991,679	80,42
991,965	85,75
992,25	82,11
992,536	82,35
992,821	84,92
993,107	83,9
993,392	85,23
993,677	78,96
993,962	85,91
994,248	79,62
994,533	83,65
994,818	80,83
995,103	77,14
995,388	80,49
995,673	80,94
995,957	76,53
996,242	77,27
996,527	79,11
996,812	84,28
997,096	85,17
997,381	83,13
997,665	74,1
997,95	72,7
998,234	80,51
998,518	81,56
998,803	76,76
999,087	84,32
999,371	74,38
999,655	77,91
999,939	79,43
1000,223	88,83
1000,507	84,34
1000,791	84,21
1001,075	89,28
1001,358	83,93
1001,642	78,65
1001,926	83,89
1002,209	84,54
1002,493	84,48
1002,776	83,43
1003,06	76,01
1003,343	78,87
1003,626	79,48
1003,91	80,96
1004,193	71,26
1004,476	72,2
1004,759	75,91
1005,042	84,16
1005,325	73,77
1005,608	75,38
1005,891	75,84
1006,173	81,64
1006,456	86,89
1006,739	76,4
1007,021	83,66
1007,304	83,51
1007,586	81,07
1007,869	76,78
1008,151	78,17
1008,434	74,67
1008,716	83,44
1008,998	62,46
1009,28	77,23
1009,562	81,57
1009,844	83,18
1010,126	80,43
1010,408	63,42
1010,69	72,72
1010,972	81,17
1011,254	89,19
1011,535	72,22
1011,817	69,46
1012,099	104,92
1012,38	44,49
1012,662	59,52
1012,943	82,34
1013,224	90,66
1013,506	78,85
1013,787	68,56
1014,068	49,61
1014,349	70,78
1014,63	67,39
1014,911	75,9
1015,192	68,35
1015,473	74,6
1015,754	58,75
1016,035	93,49
1016,316	51,21
1016,596	53,56
1016,877	79,44
1017,158	48,29
1017,438	75,69
1017,719	61,29
1017,999	49,13
1018,279	93,45
1018,56	74,14
1018,84	48,96
1019,12	19,11
1019,4	46,95
1019,68	51,3
1019,96	85,63
1020,24	61,37
1020,52	56,52
1020,8	83,45
1021,079	17,12
1021,359	45,73
1021,639	45,73
1021,918	45,73
